SampleIdent,,/
Title1,Configuration=Factory configuration, Owner=User, Creation date=8/31/2022 1:38:38 PM,/
Title2,Goniometer=HR HD (Theta/2Theta); Minimum step size 2Theta:0.0001; Minimum step size Omega:0.0001,/
DiffrType,XPERT,/
DiffrNumber,1,/
Anode,Cu,/
LabdaAlpha1, 1.540598,/
LabdaAlpha2, 1.544426,/
RatioAlpha21, 0.50000,/
DivergenceSlit,Fixed, 1/12,/
ReceivingSlit,UNDEFINED,/
MonochromatorUsed,NO,/
GeneratorVoltage,  45,/
TubeCurrent,  40,/
FileDateTime,28-feb-2025 12:49,/
DataAngleRange,   5.01245, 119.98871,/
ScanStepSize, 0.02250905608,/
ScanType,CONTINUOUS,/
ScanStepTime, 34.935,/
RawScan
      86,     129,      89,      94,     112,      94,      96,      99
      99,      64,     103,      81,     129,      76,      96,      91
      73,      93,      74,      96,      85,      96,      93,      83
      66,      93,      76,     105,     100,     100,      96,      81
     100,      73,      77,      84,      76,      95,      92,      87
      99,      85,      81,      80,      88,      88,      75,      87
     101,      79,      88,      96,      88,      86,     109,      86
      96,      98,      94,      98,      77,     101,      80,      87
     105,      92,      85,     100,      95,     102,      89,     120
     103,     106,     100,     112,      92,     110,     111,     100
     114,     100,      99,     112,     106,     105,      99,      98
     115,     117,      91,     123,      86,     102,      95,     107
     111,     101,     129,      99,     132,     100,     108,     118
     120,      97,     106,     115,     112,     121,     118,     138
     107,     118,     123,     117,     134,     101,     139,     122
     123,     103,     127,     108,     129,     125,     142,     122
     115,     127,     109,      89,     100,     101,     107,     124
     128,     104,     128,     139,     143,     100,     117,     103
     104,      91,     113,     120,     121,     121,     138,     108
     121,     108,     110,     115,      98,     138,     113,     148
     113,     110,     103,     115,     108,     122,     122,     138
     135,     121,     142,     140,     186,     170,     182,     252
     460,     573,     466,     260,     140,     103,      93,     101
     119,     109,      92,     121,      94,     101,     126,      88
     116,      91,     105,      95,     101,     104,     113,      96
     105,     119,     115,     109,      82,      95,      92,     114
      77,      73,      83,     104,      82,      90,      89,      75
      98,     102,      77,      83,      81,      95,      98,      89
     106,      81,      99,      90,      85,      93,      81,      89
      89,      82,      87,      83,      95,      70,      79,      86
      83,      72,      60,      85,      83,      60,      73,      64
      80,      62,      93,      58,      72,      67,      68,      60
      67,      61,      59,      85,      74,      93,      66,      67
      83,      83,      96,      71,      71,      72,      94,     127
     150,     204,     240,     317,     689,    1293,    1896,    1414
     627,     150,      96,      66,      78,      80,      72,      77
      76,      77,      79,      79,      75,      83,      65,      73
      73,      73,      76,      79,      68,      48,      64,      79
      51,      71,      67,      54,      73,      71,      63,      58
      41,      67,      65,      75,      64,      65,      63,      81
      75,      84,      79,      74,      67,      63,      50,      55
      59,      47,      49,      71,      71,      52,      53,      57
      58,      64,      60,      60,      67,      44,      71,      63
      59,      47,      63,      73,      76,      64,      76,      70
      59,      64,      76,      58,      73,      65,      74,      63
      79,     121,     198,     332,     628,    1274,    1899,    1565
    1239,     652,     321,     128,      81,      84,      80,      73
      64,      55,      60,      65,      63,      58,      53,      56
      66,      66,      65,      55,      74,      67,      48,      54
      48,      55,      52,      53,      51,      60,      61,      70
      57,      60,      60,      55,      56,      55,      69,      44
      49,      62,      49,      52,      52,      73,      61,      52
      57,      68,      57,      45,      50,      57,      68,      49
      48,      43,      55,      55,      49,      51,      47,      49
      40,      56,      51,      66,      46,      56,      67,      48
      65,      54,      68,      60,      65,     115,     178,     128
     103,      83,      63,      53,      59,      54,      48,      44
      62,      59,      65,      64,      59,      80,      67,      84
      63,      70,      53,      40,      55,      70,      50,      51
      60,      69,      41,      49,      47,      48,      56,      55
      58,      46,      44,      49,      55,      42,      60,      59
      53,      55,      43,      42,      43,      50,      59,      54
      37,      47,      53,      39,      49,      43,      55,      57
      45,      36,      53,      46,      49,      41,      42,      59
      44,      49,      53,      55,      62,      58,      55,      66
      74,      48,      41,      51,      61,      45,      48,      51
      54,      48,      47,      53,      41,      40,      50,      43
      46,      39,      56,      59,      53,      57,      56,      53
      57,      42,      46,      57,      48,      58,      54,      42
      47,      47,      46,      39,      40,      57,      41,      53
      45,      55,      42,      41,      45,      60,      58,      61
      50,      58,      71,      55,      78,      68,      82,      71
      99,      94,      72,      76,      75,      59,      75,      60
      77,     107,     134,     119,     146,     177,     233,     276
     389,     624,    1397,    3120,    3511,    2343,    1737,     688
     225,      96,     104,      82,      74,      73,      62,      76
      71,      65,      59,      64,      60,      51,      62,      73
      71,      69,      74,      67,      96,      83,      87,      79
      70,      72,      88,     105,     176,     259,     339,     434
     536,     492,     553,     526,     475,     332,     226,     123
      87,      63,      78,      65,      56,      51,      70,      74
      65,      87,     107,     251,     432,     463,     492,     468
     404,     426,     388,     626,     679,     354,     354,     141
      91,      58,      61,      42,      63,      53,      53,      56
      54,      52,      37,      44,      45,      31,      47,      44
      50,      52,      55,      50,      53,      43,      49,      61
      46,      46,      46,      51,      52,      32,      44,      43
      46,      40,      50,      50,      31,      44,      43,      35
      39,      45,      47,      59,      42,      30,      40,      47
      46,      43,      51,      48,      54,      39,      51,      33
      59,      46,      55,      35,      43,      47,      55,      29
      44,      46,      48,      53,      40,      92,     199,     190
     148,     129,     121,     106,     105,     110,      67,      89
      99,     107,     117,     129,     181,     179,     297,     390
     305,     280,     220,     130,     143,     184,     244,     204
     183,     161,     135,     140,     170,     134,     103,     113
      88,      92,      81,      82,      52,      72,      98,     122
     162,     577,    1291,    1771,    1697,    1357,    1306,    2005
    3387,    4248,    2940,    2129,    1765,     555,     151,     103
     100,      77,      69,      63,      53,      57,      47,      57
      55,      61,      47,      50,      50,      66,      52,      72
      52,      47,      55,      44,      64,      52,      47,      47
      49,      61,      40,      39,      54,      46,      38,      52
      52,      51,      34,      65,      60,      73,     113,     113
     107,     119,      90,      74,      80,      54,      59,      48
      54,      70,      50,      57,      55,      54,      47,      50
      65,      51,      51,      52,      64,      43,      74,      70
      55,      55,      61,      78,      63,      55,      69,      68
      67,      74,      92,     179,     582,    1052,     742,     756
    1112,     977,    1381,    2165,    3216,    1507,    1355,    1317
     490,     257,     250,     188,     160,     151,     107,     101
      85,      91,      69,      56,      66,      73,     107,     118
     122,     116,     112,     112,     139,     145,     128,     131
     148,     147,     113,     114,      99,     100,     120,     109
     129,     132,      84,      78,      60,      57,      48,      46
      44,      42,      64,      57,      43,      53,      51,      57
      55,      59,      45,      32,      65,      45,      56,      81
      81,     108,     195,     307,     189,     141,     176,     109
      43,      68,      46,      42,      38,      45,      56,      56
      66,      84,     141,     105,     116,     105,     115,      70
      76,      65,      35,      31,      37,      39,      48,      45
      45,      46,      63,      58,      45,      42,      44,      39
      59,      46,      41,      38,      45,      77,      98,     119
     139,     183,     206,     204,     156,     167,     143,      82
      89,      62,      49,      37,      51,      31,      45,      40
      28,      36,      40,      33,      27,      35,      42,      37
      26,      33,      32,      40,      35,      26,      44,      33
      32,      34,      41,      34,      28,      40,      40,      36
      43,      51,      57,      71,      98,      67,      78,      72
      61,      59,      84,     118,     117,      87,      96,      97
      70,      61,      44,      42,      34,      37,      29,      41
      56,      67,      76,     148,     275,     198,     112,     185
     181,      63,      68,      51,      71,      78,      69,      74
      78,      58,      46,      51,      30,      35,      31,      34
      33,      24,      40,      33,      40,      61,      92,      75
      88,      77,      80,      91,      58,      48,      42,      38
      37,      55,      28,      29,      36,      60,     103,     146
     203,     141,     116,      95,      99,      68,      43,      39
      44,      36,      42,      18,      29,      30,      30,      26
      29,      31,      28,      26,      33,      22,      20,      23
      30,      29,      31,      38,      45,      61,      86,     158
     203,     110,     109,     145,      92,      57,      56,      38
      24,      43,      42,      58,      41,      45,      39,      37
      35,      37,      30,      19,      24,      23,      19,      25
      35,      31,      34,      44,      56,      72,     138,     277
     336,     385,     264,     220,     214,     175,     110,      57
      48,      38,      30,      41,      29,      24,      23,      17
      24,      20,      23,      29,      23,      25,      22,      20
      23,      32,      23,      33,      22,      34,      33,      31
      35,      35,      24,      27,      34,      23,      28,      34
      24,      23,      25,      30,      25,      31,      22,      25
      30,      27,      18,      41,      25,      22,      33,      22
      28,      25,      34,      31,      17,      35,      22,      31
      22,      37,      31,      41,      50,      64,      83,     116
     139,     106,      87,     101,      88,      61,      42,      43
      53,      73,      85,      83,      69,      69,      71,      61
      73,      62,     132,     223,     259,     271,     197,     171
     162,     146,     128,     136,     187,     172,      89,     106
     103,      74,      62,      45,      35,      44,      32,      29
      34,      50,      46,      45,      51,      69,      56,      54
      58,      40,      42,      40,      44,      34,      39,      35
      23,      32,      28,      32,      35,      49,     103,     151
     157,     161,     108,     126,     142,     178,     192,     121
      86,      89,      97,      71,      38,      23,      26,      26
      23,      28,      17,      25,      23,      25,      21,      20
      19,      19,      14,      23,      20,      16,      26,      14
      21,      27,      23,      19,      20,      20,      27,      18
      15,      22,      13,      21,      25,      13,      14,      20
      13,      22,      25,      22,      18,      20,      15,      19
      18,      23,      26,      15,      13,      14,      21,      15
      12,      20,      28,      17,      19,      21,      20,      18
      28,      24,      26,      22,      16,      18,      21,      24
      16,      27,      20,      30,      27,      27,      14,      20
      27,      19,      17,      14,      16,      18,      17,      19
      21,      14,      13,      13,      22,      10,      30,      25
      24,      27,      24,      25,      18,      25,      21,      18
      13,      23,      15,      13,      23,      12,      23,      18
      18,      19,      29,      14,      23,      20,      29,      16
      11,      18,      20,      24,      14,      18,      14,      19
      19,      21,      26,      22,      20,      29,      41,      36
      22,      35,      38,      47,      52,      39,      26,      33
      37,      32,      18,      23,      21,      32,      22,      31
      26,      20,      20,      26,      30,      18,      21,      19
      24,      29,      31,      22,      21,      33,      22,      14
      20,      20,      19,      19,      16,      19,      25,      13
      15,      17,      15,      17,      21,      27,      28,      16
      21,      19,       6,      20,      16,      18,      19,      29
      22,      19,      27,      24,      21,      17,      23,      22
      17,      20,      19,      30,      27,      17,      24,      22
      20,      29,      27,      24,      40,      34,      54,      93
      49,      43,      32,      58,      43,      40,      30,      29
      28,      38,      49,      97,      95,      82,      47,      64
      57,      51,      54,      56,      53,      67,     100,     106
     143,     216,     134,      67,      71,     113,      86,      62
      36,      30,      31,      25,      28,      32,      35,      37
      37,      38,      37,      46,      28,      27,      22,      25
      38,      23,      38,      23,      20,      18,      25,      22
      22,      30,      41,      42,      55,      51,      46,      44
      33,      55,      46,      42,      36,      47,      93,      91
      63,      60,     135,     206,     120,      62,      46,      75
      94,      39,      32,      26,      28,      30,      27,      32
      11,      27,      28,      25,      27,      24,      33,      26
      28,      20,      22,      26,      21,      26,      20,      19
      17,      17,      20,      23,      14,      25,      15,      16
      30,      29,      13,      22,      14,      19,      18,      30
      18,      13,      28,      19,      29,      35,      42,      33
      19,      24,      20,      28,      34,      21,      28,      15
      22,      30,      24,      28,      24,      19,      22,      19
      15,      30,      19,      21,      19,      15,      26,      22
      18,      19,      23,      20,      18,      28,      19,      33
      27,      33,      21,      41,      27,      34,      29,      21
      18,      31,      15,      20,      15,      16,      13,      17
      23,      21,      18,      17,      18,      15,      19,      21
      16,      28,      24,      36,      34,      24,      20,      18
      27,      26,      34,      32,      21,      14,      19,      20
      26,      20,      20,      18,      11,      16,      16,      13
      11,      14,      10,      18,      18,      17,      16,      10
      15,      14,      16,      19,      14,      20,      15,      15
      21,      25,      17,      26,      21,      22,      20,      22
      25,      20,      25,      19,      34,      29,      39,      30
      21,      21,      20,      25,      32,      30,      21,      18
      24,      30,      32,      25,      23,      28,      23,      20
      22,      30,      46,      41,      33,      27,      35,      28
      19,      15,      23,      12,      23,      18,      14,      13
      13,      13,      20,      20,      24,      23,      23,      16
      17,      24,      16,      14,      17,      27,      20,      22
      16,      17,      16,      19,      22,      15,      20,      25
      32,      15,      16,      23,      33,      26,      28,      35
      39,      39,      69,     144,     240,     327,     297,     250
     151,     153,     203,     225,     220,     152,      88,      49
      45,      68,      79,      45,      23,      27,      23,      16
      20,      27,      15,      15,      11,      27,      37,      60
      76,      38,      36,      29,      45,      49,      39,      29
      37,      29,      33,      18,      19,      18,      20,      17
      29,       9,      22,      24,      20,      24,      15,      27
      17,      14,      22,      20,      13,      20,      30,      19
      23,      20,      16,      17,      24,      23,      15,      30
      14,      24,      15,      24,      19,      16,      14,      28
      21,      28,      11,      22,      23,      23,      13,      25
      17,      23,      25,      26,      18,      24,      19,      21
      18,      18,      18,      28,      30,      24,      10,      23
      22,      28,      28,      30,      30,      34,      43,      43
      53,      74,      70,      65,      94,      57,      56,      43
      36,      33,      54,      24,      23,      23,      11,      19
      13,      17,      11,      10,      17,      19,       9,       8
      24,      24,      11,      17,      19,      20,      19,      20
      15,      13,      20,      12,      16,      13,      14,      19
      10,      15,      13,      18,      20,      17,      19,      19
       2,      15,      17,      10,      14,      20,      21,      11
      17,      12,      19,      15,      12,      11,      11,      17
      14,       9,      20,      17,      18,       8,      12,      23
      27,      28,      18,      22,      16,      18,      23,      23
      21,      15,      13,      16,      19,      18,      18,      19
      20,      13,      20,      14,      24,      15,      24,      22
      21,      13,      15,      17,      23,      15,      17,      13
      12,      24,      13,      17,      20,      12,      13,      17
      16,      14,      16,      23,      17,      18,      15,      10
      19,      19,       6,      16,      14,      12,      14,      24
      13,      24,      20,      15,      18,      18,      12,      25
      15,      15,      23,      28,      22,      12,      26,      29
      30,      23,      24,      13,      19,      21,      29,      34
      26,      37,      15,      14,      17,      16,      26,      24
      17,      22,      26,      17,      25,      25,      13,      14
      12,      14,      19,      15,      12,      13,       9,      20
      20,      15,      13,      19,      20,      27,      21,      19
      21,      17,      16,      29,      26,      31,      46,      25
      18,      22,      22,      20,      28,      22,      24,      12
      25,      16,      18,      24,      23,      18,      13,      10
      15,      20,      19,      18,      20,      13,      15,       7
      13,       8,       9,      13,      18,      12,      18,      22
      21,      14,      20,      18,      11,      15,      12,      19
      11,      17,      11,      21,      16,      15,      14,       8
      11,      11,       9,       9,      20,      14,      15,      12
      14,      17,      19,       8,      11,      15,       6,       8
      17,      18,      21,      14,      11,      20,      16,      25
      17,      23,      16,      13,      24,      13,      19,      16
      15,      17,      16,      21,      19,      19,      21,      17
      12,      18,      15,      13,      16,      13,      21,      20
      11,      19,      24,      31,      35,      21,      28,      19
      18,      22,      18,      13,      19,      17,      15,      15
      21,      16,      18,      15,      21,      13,       7,      11
      22,      12,      11,      11,      10,       7,      14,      14
      12,      13,      12,      14,      11,      12,      10,      13
      11,       9,      18,      23,      24,      17,      23,      23
      23,      29,      16,      29,      33,      19,      24,      24
      15,      11,      24,      14,      26,      25,      26,      25
      17,      20,      19,      19,      15,      11,      18,      15
      25,      14,       9,       9,      11,      16,      16,      17
      12,      18,      11,      13,      11,      12,      11,       9
      10,      12,      21,      21,      17,       8,      13,      16
      13,      14,       7,      14,      18,      15,      18,      16
      17,      23,      26,      18,      17,      16,      17,      17
      16,      20,      18,      15,       9,      11,      13,       7
      11,      14,      15,      16,      11,      14,      19,       7
      10,      11,      16,      10,       9,       9,      10,      15
      13,      19,      11,      10,      14,      22,      16,      18
      15,      25,      19,      16,      11,       7,       8,      12
      17,      17,      16,      23,      14,      11,      19,       8
      14,      18,      21,      36,      48,      37,      41,      24
      15,      26,      18,      27,      26,      33,      25,      16
      18,      12,      17,      17,      18,      11,      15,       7
      13,      15,       8,      12,      10,      13,      14,       7
      14,       9,      10,       8,      12,      11,       2,      10
      11,       6,      10,      12,      10,       8,      17,       5
      10,      17,       6,       8,      13,      12,      20,       9
      15,      16,       7,       9,      12,      14,      12,       5
      11,      12,      14,      14,      20,      10,      11,      10
      17,       9,      13,      17,      10,      12,       6,      18
      12,      20,       7,      13,      10,      11,      10,       9
       3,      10,      11,       8,      10,      12,      14,      11
       4,       7,       6,      11,       6,       8,      10,       6
      11,       3,       7,       8,      12,      13,      11,      17
       9,      10,       7,      12,       7,       7,       7,       4
       6,       8,      12,       9,       9,       7,       8,       9
      10,      10,       9,      10,       8,       8,      14,      16
      18,      17,      16,      13,      14,      15,       4,      12
       9,       8,      12,       4,      10,       8,       8,      15
      21,      15,       9,      14,       8,      17,      13,      11
       9,      19,       8,      18,      14,      12,      22,      31
      32,      16,      14,      13,       5,      11,      14,      25
      15,      13,      11,      11,       7,       7,      10,      14
       8,      11,       1,       9,      21,       6,       5,       7
      14,      11,       9,       7,       4,      11,       8,       4
       6,      13,       9,      11,      13,       7,      14,      11
      12,       9,      12,      12,       7,       9,       9,       6
       9,       7,       6,       5,       8,      11,       4,       7
       8,       5,      10,       5,       5,      11,       9,       2
       9,       4,      11,       7,       9,      14,       6,      15
       8,      11,       9,       9,      11,      10,      13,       8
      11,       6,       4,       7,       7,       9,       6,      14
      11,       7,       4,       6,       6,       6,      12,      10
       6,       4,       7,      12,       9,       7,      13,       9
      12,       8,      14,      17,      13,       5,      12,       6
      14,      11,       9,       6,      12,       8,       8,      13
      13,       7,       9,      17,      10,      12,       4,       6
       9,       8,       8,       7,       6,       7,      13,       3
       7,      11,       5,       5,      10,      10,       5,       5
       7,      11,      13,      18,       8,       6,       8,       8
      10,      13,       8,      13,      13,       8,       5,       6
       5,       2,       7,       6,      10,      11,       4,       7
       7,       7,       4,      11,       5,      10,      11,      16
       8,      10,      15,       8,      11,      15,      11,      12
      17,      11,      13,      15,      10,       6,       8,       6
      10,       6,       7,      11,      16,       2,       7,      12
       6,       9,      12,      15,       8,       5,       5,       7
      12,      14,       6,       6,       7,       9,       7,      11
       7,      23,      12,      11,      10,      12,       6,      10
      10,       5,      19,       9,      12,      17,      17,       7
       9,       8,       6,      11,      10,       9,      12,      16
      10,       2,      11,       8,       8,       6,       5,       4
       3,       6,      11,       6,      10,       8,       7,       8
      11,       9,      10,      10,       5,      14,       9,      11
      15,      17,       4,      12,      19,       8,      13,       3
       3,      14,      19,       8,       9,       6,       6,       2
       4,       7,       9,      16,       6,       7,       7,       8
       9,       7,       9,      10,       3,       8,       6,       8
      11,       6,      12,      10,       9,       3,      11,      12
      14,       2,       7,       4,       9,      14,       9,      10
       9,       7,       5,       6,      11,      13,       8,       6
       2,       6,       5,       7,       4,       6,      10,       7
       4,      14,       8,      11,       8,       9,       6,       4
       4,       5,       5,      10,       6,       9,       5,      15
       8,       5,       6,       3,      12,       6,       3,       7
       8,       7,      13,       7,       8,       9,       8,      20
       7,      12,       5,       9,       9,       8,       7,       7
      10,      16,      16,       5,      11,      19,      20,       9
       9,      11,       8,      12,      14,      14,      27,      31
      11,      13,      10,      13,      12,      11,       7,      29
      13,      11,       5,       7,      13,      13,      13,       6
       3,       3,      10,      14,      12,       6,       9,      11
       6,       8,      16,      11,       8,      11,      15,      18
      17,      18,      22,      22,      21,      22,      10,       9
      16,      19,      17,      16,      22,      18,      21,      25
      22,      22,      16,      23,      22,      16,      16,      23
      14,      29,      15,      11,      11,      11,       9,      15
      14,      16,      13,      13,      16,      17,      40,      53
      66,      43,      32,      24,      17,      13,      14,      26
      35,      46,      40,      21,      19,      11,       7,      16
      10,       6,       6,       8,      10,       3,       3,      18
       5,       9,       8,       7,      11,      14,       6,      10
       7,       2,       5,       4,       8,       7,       7,      10
      11,       2,       5,      10,       5,      11,       8,       9
      18,       8,      11,       9,      11,       7,       6,       9
      11,       6,       8,      14,       8,      15,      13,       8
       9,       9,       4,      10,       1,       3,       8,       9
       8,      10,       7,      10,       7,       7,       7,      13
       5,      10,      12,      11,      12,       8,       4,       8
      10,      10,       4,       4,       4,       7,       8,      12
      11,       5,      14,       5,      10,       8,       8,       8
       8,      11,       4,      10,       8,      12,      14,      19
      14,      16,      27,      42,      32,      22,       9,       2
      16,      19,      20,      26,      35,      42,      11,      14
      10,      11,       9,       9,      13,      10,      11,      17
      18,       9,       7,       7,       6,       7,       9,      13
      14,       9,       9,       5,      12,      12,       8,       8
       8,       5,      11,      16,       6,       9,       7,      12
      10,       9,      10,       3,       7,      10,       5,       5
       8,      10,      16,      12,       6,       9,      10,      13
      14,       8,       6,       6,       8,      10,      16,       7
      10,       8,       6,       8,      10,       9,      10,       7
       6,       8,       4,       4,       9,      12,      10,       5
      14,       6,       6,       2,      12,       5,       4,      12
      16,       5,       9,       8,      18,      18,       5,      10
      10,       9,       7,       8,      13,      11,      11,      13
      14,      18,      21,      16,      12,      13,      16,      11
      10,      17,       9,      17,      13,      19,      14,      11
      11,      13,       4,       4,      11,       5,      19,      14
       5,       6,      14,       8,       5,       9,       8,       8
       9,       7,      12,       9,       8,      11,       9,       7
       9,       3,       6,       7,       6,       5,       5,       8
       1,      11,      12,      13,       5,       4,       9,       6
      14,      10,       2,      11,      12,      10,      15,       0
      10,      15,       8,      10,       7,      11,       9,      12
       5,      10,      18,      11,      14,      10,       9,       7
      11,      12,      11,      12,       4,      11,       7,      15
       9,      11,      15,      14,      21,      14,       8,       9
       6,       8,       8,      10,       8,      13,      17,       8
       3,      12,      13,      10,      10,       6,       9,       7
       7,       2,       4,       9,      13,       4,      11,      11
      10,       6,      12,       6,       7,      12,       5,       5
      12,       5,      12,       9,      10,      13,       9,       5
      10,       9,      14,      13,       9,       9,       5,       8
       9,      13,       7,       6,       9,      12,      10,      12
      12,       9,      13,       8,       6,      10,      18,      12
       7,       9,      11,      12,       8,      12,      10,      13
       8,       6,      10,      10,      15,       7,      11,      17
       8,       7,      10,       7,       9,      10,      13,       5
       8,       8,      14,       9,       8,      14,      11,       5
      11,      15,      12,       8,      12,       7,      13,      10
       9,      13,       8,       9,      10,      10,      12,      10
      13,      19,      17,      16,      11,      10,      11,       8
       9,       6,      12,       5,      10,      12,      11,       7
      14,       5,       9,      10,       8,       7,       7,       9
      10,      15,       3,       6,      10,      11,       9,       8
       5,       9,       8,      14,      13,      14,       8,       8
       7,       5,       8,      16,      10,       6,       8,      13
       8,      13,       6,       5,       7,       7,      13,      10
       6,       8,      11,       6,      10,       9,      10,      15
      14,      13,      15,       8,       7,      11,       9,      13
      11,       7,      10,       9,       8,       7,       9,       6
       4,       5,       6,      12,      11,       5,       8,      15
       5,      11,      12,      11,      11,      15,       9,       3
      11,       9,       8,       7,      10,       9,       9,      12
       8,      12,      12,       7,      14,      11,       8,      13
      10,       7,       6,       7,      14,      12,       8,       1
       7,      11,      10,       8,      13,      15,      15,       9
       8,       8,       7,       3,       7,      10,       6,      11
       9,       4,       9,       7,      10,      11,      12,      11
       5,       7,       5,       8,       6,       6,       5,       8
       5,       5,      13,       8,       7,       3,       9,       6
       7,      13,      10,       6,       7,       7,       8,       8
       8,      11,      11,       9,       8,       6,       4,       4
      11,      13,      10,       4,       7,      11,       8,       6
       4,       8,       8,      10,       5,       9,       4,       8
       7,       5,      10,      15,      14,      22,      12,      11
       7,      10,      10,       8,       8,      15,      12,      18
      13,      14,      14,       9,      17,       6,       9,      13
       8,       8,      10,      11,      13,      15,       4,      12
      11,      12,      15,       8,       6,      12,      10,      18
      11,      14,      13,       9,      12,      14,       8,      10
       7,       9,      10,      10,      15,       9,      11,       5
       6,      13,      13,       4,       6,      12,       4,       8
       9,       8,       8,       8,       3,       5,       6,       7
      10,       8,      10,      12,       8,       8,      10,      15
       1,       7,      10,       8,       3,       3,      16,       8
      10,       7,      11,       8,       5,      15,       6,       9
      10,       6,       7,       8,       8,      11,      15,       5
       6,       6,       7,       7,      10,      12,      14,      14
      11,      10,       4,       7,      12,       6,      10,       6
       7,      14,       2,      12,      15,       7,       8,       7
      12,       5,       5,       5,       8,       9,      10,       6
       9,       5,       2,       5,       4,       5,      12,       6
      10,       6,      15,       7,      11,       5,       6,      10
       3,       8,       6,       5,      11,       3,      12,       6
       4,       9,       9,       9,       9,      14,       9,      11
      10,       6,       5,       5,       7,      11,       8,       4
      13,      11,       9,       8,       9,      10,       5,       6
       9,       6,       6,       5,      11,       3,       4,       5
       3,       3,       7,       6,       9,      14,      16,       9
      12,       7,       6,      10,       9,      16,      12,       6
       6,       9,      12,       8,       4,       6,       6,       8
       5,       9,       9,       8,      15,      10,       8,       6
       7,       6,       6,      12,       7,       3,       6,      10
       2,      11,       6,       6,       6,       6,       7,       4
       6,       9,       6,       7,      10,       3,       1,       3
       6,      11,       3,      10,      12,       9,       7,       2
       6,       3,      10,       5,      10,       7,       8,      11
       6,       4,       9,       2,       5,       4,       7,       7
       5,       7,      12,       6,       4,       5,       8,       7
       2,       8,       4,      10,       6,       6,       2,       5
       5,       7,      11,       8,       8,       9,      10,      14
      10,       6,       7,       6,       2,       5,       9,       9
       3,       3,       4,       8,       6,       6,       7,       7
       8,      12,      13,      11,       4,      11,      11,      10
       5,       5,       3,       4,       7,       3,       7,       6
       8,       3,      12,       7,       3,       3,       3,       4
       4,       6,      11,       9,       7,       7,       8,       8
       2,       6,       7,       7,       4,       5,       1,       4
       4,      10,       6,      11,       4,       7,       7,       0
       8,       5,       6,       6,      15,       6,       3,      12
       4,       9,       5,       5,       8,       8,      13,       8
       7,       6,      11,       8,       9,       8,       5,      10
       7,      13,       9,       6,      12,       7,       5,      11
       1,       8,       8,       9,      14,       2,       2,       4
      11,       4,       5,       6,       8,      12,       7,       6
       1,       4,       6,       7,       6,      13,       3,       9
       5,       4,       6,       4,      10,       5,       6,       0
       3,       5,       7,      10,       5,       7,       6,       2
      11,       9,       3,       7,       4,       3,       6,      10
      11,       4,       5,       4,       2,       3,       6,       9
      10,       7,       6,       2,       6,       5,       5,      10
       4,       6,       6,      10,       3,       7,       6,       2
       4,      10,       4,      13,       5,       9,       7,       9
       5,       7,       7,       3,       8,       9,       6,       5
       6,       4,      12,       9,      13,       3,       6,       2
       9,       4,       1,       8,       4,      11,      11,       6
       3,       6,       9,       9,       3,      10,       6,       5
       5,       9,       8,       8,       5,       6,       4,       5
       6,       4,       9,       2,      14,       8,       9,      10
       5,       6,      10,       6,       6,       7,       5,       2
       9,       4,       3,       2,       1,       3,       8,       5
       0,       5,       4,       8,       6,       4,       3,       6
      10,       7,       2,       5,       4,       5,       3,       6
       4,       7,       8,       6,       4,       6,      11,       7
       3,       4,       8,       2,      11,       2,       6,       6
      11,       7,       7,       2,       7,       4,       6,       8
       4,       3,       8,       5,       5,       3,       7,       3
      10,       5,       5,       6,       8,       6,       9,       4
       4,       5,       8,       1,       1,       3,       9,       1
       6,       2,       4,       3,       3,       7,       2,       9
       3,       2,       8,      10,       7,       5,      12,       9
       9,       7,       4,       4,       4,       8,       6,      10
       5,       9,       6,       1,       5,       5,       4,       1
      10,       4,       5,       8,      10,       5,      10,       1
       3,       2,      12,      13,       9,       6,      10,       0
       5,       5,       6,       3,       4,       9,       4,       3
       4,       7,       6,       7,      13,       2,       8,       6
       4,       5,       3,       4,      12,       2,       3,       7
       8,       3,      12,       9,       6,       0,       5,       6
       9,       6,       5,       4,      10,       4,       3,       8
       6,       8,       8,       1,       9,       3,      10,       8
      11,       9,       5,       9,       2,       2,       5,       7
       3,       5,       7,       8,       8,       4,      11,       6
       3,       5,       6,       4,      10,       5,       6,       2
       2,       4,      12,       6,       8,       6,       4,       5
       3,       5,       2,       6,       6,       7,       4,       3
       1,       2,       1,       5,       8,       4,       7,       2
       7,       7,       1,       8,       1,       3,       5,       3
       6,       7,       2,       8,       1,       6,       2,       8
      11,       6,      11,       4,       5,       7,       2,       7
       6,       3,       9,       4,       6,       4,       6,       4
       4,       8,       2,       6,       5,       7,       5,       7
       3,       2,       4,       6,       3,       7,       4,       4
       9,       4,      11,       3,       5,       2,       6,       6
       4,       5,       5,       3,       3,       3,       9,       2
       9,       7,       6,       1,       6,       3,       3,       7
       2,       3,       9,       4,       7,       4,       6,       2
       6,       4,       3,       2,       5,       2,       1,       5
       4,       5,       1,      10,       3,       5,       0,       4
       5,       9,       2,       5,       9,      10,       5,       3
      13,       8,       8,       4,       3,       5,       2,       6
       5,       6,       8,       8,      10,       3,       2,      10
       8,       9,       2,       7,      11,       3,      10,       7
       4,       8,       9,       7,       4,       2,       3,       8
       8,       7,       4,       0,       3,       5,       5,       2
       9,       7,       3,       4,       4,       7,      10,       5
       5,      12,       4,       2,       3,       4,       5,       7
       5,       3,       7,       4,       6,       5,       0,      14
       4,       4,       4,       7,       3,       5,       2,       9
       6,       4,       9,       2,       5,       8,       8,      10
       7,      17,       4,       4,       0,       8,       7,       3
       3,       7,      11,       8,       4,       7,       2,      11
       3,       4,      13,      10,       4,       9,      10,       4
       7,       5,       0,       4,       1,       6,       0,       7
       3,       5,       1,       2,       5,       9,       5,       7
       7,       7,       9,       5,       7,       4,       2,       7
       4,       5,       3,       6,       6,       6,       6,       2
       7,      12,      13,       6,       4,       8,       5,      11
       5,       9,       9,       8,       5,       3,       4,       4
       7,       3,       6,       7,       7,       4,       7,       2
       5,       2,       7,       8,       9,      10,      11,       1
       0,       5,       0,       4,       6,       7,       0,       0
       7,       7,       5,       6,       7,       2,       5,       5
       3,       4,       6,       2,      10,       3,       9,       3
       1,       4,       4,       8,       6,       5,       1,       7
       1,      13,       3,       6,       5,      12,      11,      10
       1,       4,       5,       8,       3,       9,       4,       5
       1,       3,       4,       7,       3,       1,       3,       8
       6,       6,       1,       5,       4,       7,      11,       4
       1,       2,       9,       6,       4,       3,       4,       2
       6,      13,       6,       4,       4,       0,       3,       8
       3,       0,       8,       5,       4,       7,      12,       8
       7,       6,       8,       5,       2,       9,       5,       5
       4,       7,       2,       8,       5,       7,       5,       6
       6,       6,       6,       7,       9,       2,       5,       5
       9,       5,      11,      10,       5,       8,       7,       6
       6,       5,       6,       6,       6,       6,       3,       7
       6,      12,       2,       5,       4,       7,       6,       4
       8,       3,       6,      12,       7,       3,       8,       2
       8,       6,       2,       5,       5,       5,       5,       7
       3,       5,       9,       5,       4,       2,       9,       4
       5,       1,       4,       5,       6,       5,       1,       6
       3,       9,       1,       2,       2,       5,       7,       4
       2,       2,       7,       4,       2,       3,       8,       6
       8,       2,       9,       5,       2,       4,       6,       1
       1,       4,       9,       5,       7,       5,       2,       3
       6,      14,       5,       2,       5,       3,       8,       4
       8,      11,       8,       7,       3,       4,       4,       5
       3,       9,       4,       9,       7,       3,       9,       4
       6,       5,       6,       9,       5,       4,       4,      10
       5,       3,       8,       4,       4,       4,       7,      10
       9,       5,       6,       5,       6,       4,       5,       5
       6,       9,       5,       6,       5,       9,       8,       5
       6,       6,       4,       5,       6,       1,       6,       6
       6,       9,       7,       3,       8,       4,       3,       9
       2,       6,       8,       9,      11,      11,       6,       6
       5,       7,       7,       3,       6,       5,       8,       2
       6,       6,       6,       4,       7,       0,       3,       7
       5,       5,       6,       4,       7,      11,       4,       1
       4,      10,      10,       5,       3,       8,       8,      11
       4,       6,       2,       4,       6,       7,       9,       9
       9,       5,       7,       7,       7,      10,       9,       6
       6,       2,       7,       7,       4,       7,       6,       4
       2,       2,       7,       6,       2,       8,       2,       3
       6,       1,       6,       4,       9,       3,       6,       8
       5,       4,      13,       3,       7,      11,      14,       4
       8,       5,       4,       7,       6,       5,       8,       6
       7,       3,       7,       5,       3,       8,       1,      10
       7,       3,       2,       2,       3,       5,       2,       2
       6,       2,       5,       6,       3,       4,       1,       1
       4,       2,      11,       8,       4,       5,      11,       6
       9,       3,       1,       3,       7,       6,       7,       6
       5,       4,       5,       2,       7,       8,       5,       2
       3,       4,       8,       4,       5,       8,       1,       5
       8,       6,       5,       6,       4,       7,      12,       5
       2,       9,       6,       6,       9,      14,       9,       6
      11,       8,      10,       9,       5,       5,       2,       6
       8,       3,       1,       7,       6,       9,      11,       5
       5,       6,       2,       3,       3,/
